"wavelength","dsred_5ul","dsred_5ul_cu","dsred_5ul_cu_edta","lipo_uncleaved_100ul","lipo_uncleaved_100ul_cu","lipo_uncleaved_100ul_cu_edta","lipo_cleaved_100ul","lipo_cleaved_100ul_cu","lipo_cleaved_100ul_cu_edta","lipo_cleaved_275ul","lipo_cleaved_275ul_2","lipo_cleaved_275ul_cu","lipo_cleaved_275ul_cu_edta","lipo_uncleaved_275ul","lipo_uncleaved_275ul_cu","lipo_uncleaved_275ul_cu_edta"
561.9099731,26.76982307,115.1053009,25.22522545,112.6313858,344.8358459,200.3981476,8.404445648,9.122411728,7.936935902,20.51045609,20.69599533,17.75293922,17.67191887,28.11152458,14.26178741,30.35423088
562.9400024,24.48487091,35.23015594,21.92673302,35.41581345,93.41719818,60.10322189,7.428856373,6.096417904,6.801506519,17.85641861,17.56438828,13.06673622,14.61271858,29.31194496,11.93810081,30.87075233
563.9699707,26.67939568,10.64062977,23.48836708,14.63238335,19.90961647,18.67376328,7.359990597,4.933885098,6.434677601,16.06993103,17.70382118,11.40073967,13.8450222,30.34955025,11.31759071,31.83717918
564.8499756,27.77710915,7.483212471,24.81712341,11.65542984,8.545677185,13.68707085,7.055260181,4.382996082,6.15627718,17.23333168,17.7214241,10.46697426,12.94958687,31.68922615,11.16035461,33.94138718
565.8800049,28.16901398,6.976628304,26.81221581,11.47532845,5.666862011,13.01795006,6.916768551,4.174492359,6.402395725,16.66538048,16.93119049,9.173196793,12.96601868,34.7961998,10.94052505,35.53492737
566.9099731,31.9865303,7.011734962,30.1112442,13.17930222,5.65548563,13.32603073,7.568912983,3.297513008,6.594258785,16.56301308,17.51540756,8.080579758,13.89038849,37.19182205,10.55356216,38.13399506
567.9400024,35.312397,7.417953014,32.56248474,13.92899895,4.808315754,14.02536774,8.395547867,2.445392132,6.760043621,17.97634315,18.10628319,7.918218136,13.35459518,40.51795197,10.43133354,40.08320999
568.9699707,37.74809265,7.448557854,34.95763016,15.2779007,4.929518223,15.37240982,8.351823807,2.907731056,6.378124714,18.73634338,19.62960625,7.651910305,14.14864159,43.0605278,10.48738098,42.60961533
569.8499756,40.21570969,7.553440571,37.61823654,16.14751816,5.115383625,15.85117531,9.228099823,2.666100025,6.905743122,19.41784668,18.97671318,7.15374136,14.72457695,44.06899261,11.31513596,47.00102615
570.8800049,43.89279938,7.52650547,40.42702103,16.84481049,4.532871723,17.57102203,8.539855957,2.435625076,7.320654392,20.40779114,19.87401581,7.525021076,14.548172,46.14220047,11.27025604,46.92549515
571.9099731,46.53886795,7.840802193,42.29785538,18.55282211,5.205361843,18.59378052,8.9790802,2.570756435,7.531617641,21.21634865,21.25265884,6.676309109,15.73279381,49.01869202,11.45518303,48.99375153
572.9400024,49.64136124,8.41504097,44.61928177,19.55657005,5.248345852,18.86939049,9.311323166,2.019939899,7.597138882,22.04299736,21.3778019,6.521929264,15.52657509,51.28705978,11.67581177,52.27981186
573.9699707,52.19494629,8.433099747,47.18563461,21.4803009,4.926730633,19.85131836,9.773353577,1.573725224,7.515916348,22.03211212,22.15263939,5.691009045,15.96426773,54.17191696,11.55682755,52.87169266
574.8499756,54.47452164,9.112922668,49.50886917,21.80919647,5.334544659,20.92710304,9.074014664,1.737553596,7.816662312,22.30913925,23.21444321,5.93147707,15.96936989,55.15714645,11.51180649,54.65391922
575.8800049,56.10529327,8.913748741,52.86200333,23.58389473,4.76827383,21.42873764,10.02261925,1.270111084,8.011138916,23.37609863,23.07061768,5.191215992,16.52566719,55.69913483,11.33048058,54.31520844
576.9099731,59.49241638,8.969842911,56.08293915,24.45552826,5.055324078,23.36564445,10.36766815,1.508704662,8.640125275,23.33921623,22.74132919,5.084353924,16.19384956,58.27730942,11.37018204,58.73981857
577.9400024,62.32571411,8.943963051,57.09977341,25.27632141,5.179955959,23.72983551,10.70754433,1.000451565,7.517970562,23.67540169,24.70874214,4.839026928,17.02165985,60.06946945,12.31743622,59.62531281
578.9699707,65.50382996,9.179819107,60.02050018,25.37266922,5.233510494,24.36635399,11.02328873,0.9164252281,8.89802742,24.17417526,24.87284088,4.363888264,17.26241302,61.26275253,11.86769295,59.25458908
579.8499756,66.56516266,8.848012924,61.60224152,27.07069588,4.939629078,24.33338928,11.13107491,0.7607088089,8.848632813,25.29828835,24.43609428,4.519714832,17.34324455,63.16794968,12.70367241,61.4271431
580.8800049,68.67503357,9.355983734,63.21839142,27.76763916,5.188669682,24.54123116,10.78598595,1.094887733,8.940361023,26.00057411,25.06422234,4.233605862,17.03585625,64.4377594,12.4317646,62.51302719
581.9099731,69.08815002,9.643296242,64.56204987,28.45764351,5.374078274,24.41692352,11.12107086,0.389465332,9.078468323,26.23364067,25.3219738,4.677968502,17.28909302,65.05056,12.03676033,64.19268799
582.9400024,70.90636444,9.916362762,66.95852661,29.17143822,5.703626156,25.87615967,11.49692917,0.4668459892,9.042778015,26.32478333,25.66366005,4.248800755,18.05759048,66.67194366,12.69976997,63.48270035
583.9699707,72.56142426,9.978102684,68.46925354,31.28230476,4.640598774,26.08187294,11.25078392,0.7580518723,8.630849838,26.32094383,25.82174683,4.245079517,18.16154861,69.59854889,12.63919067,65.24724579
584.8499756,73.04270172,10.25300598,69.11804199,30.80510139,5.269013882,26.55108833,11.94547081,0.5774812698,9.309316635,26.57629967,25.84721375,4.30869627,17.7744503,68.16186523,12.3281765,64.97216797
585.8800049,74.5903244,9.71133709,70.28220367,30.10150337,5.176683903,27.34643936,12.10061836,1.141854763,9.452327728,27.68513107,26.83810425,4.238146305,17.94316292,70.04825592,12.70047951,66.11747742
586.9099731,75.49804688,10.07228947,70.34580231,30.83028984,5.537540913,28.22456932,12.26660728,0.5677847862,9.18056488,26.75663185,25.82046509,3.978994846,17.68778801,69.74965668,12.28861046,66.8792572
587.9400024,74.89622498,9.972550392,70.19762421,32.10183334,5.14405489,27.49810982,11.67903137,0.4927206039,9.321086884,28.93984413,26.09140015,3.801126957,17.20394135,69.06704712,12.53833199,66.8457489
588.9699707,77.09137726,9.590474129,71.9125061,32.24793625,5.335538387,27.43243027,11.86444473,0.3702716827,9.198228836,26.85961533,26.82697296,3.692833424,17.34526825,70.98897552,12.25129509,65.12089539
589.8499756,77.73014069,10.21739101,72.12229156,32.62376404,5.146392345,27.91267967,12.00107956,0.4492201805,9.004930496,27.73118591,26.44604683,3.616400719,17.81251144,70.15569305,12.14069557,66.11019897
590.8599854,77.2486496,9.659959793,72.20437622,31.62682533,5.075776577,27.93551445,12.24375534,0.1894216537,9.005046844,27.00734138,26.07153511,4.044577122,17.24876976,72.98641968,12.07966995,66.29277039
591.8800049,77.67062378,9.496863365,71.94555664,32.59679413,5.29086256,27.39619064,12.13871002,0.6465144157,9.297389984,27.2447052,26.56587982,3.607571602,17.7858448,72.09059143,12.65033722,64.05501556
592.8900146,78.8927536,9.824388504,71.68289185,33.19630051,4.925310612,26.52297783,11.91054535,0.3610954285,8.743015289,28.09855843,26.61784744,4.072933674,17.39568329,70.90659332,12.9495945,66.10708618
593.9099731,78.53887939,9.899770737,72.51823425,32.65236282,4.653448582,27.74620628,11.38866234,1.11517477,8.5229702,27.3763237,26.47570992,3.531971931,16.9012413,71.29839325,12.22327614,64.56785583
594.9199829,76.80345917,9.585371017,72.45663452,32.95699692,4.607976437,27.81724739,11.03253746,0.5739326477,8.825138092,27.39912224,26.48088646,3.377974033,17.4718914,72.212677,12.25110435,63.84619522
595.9400024,77.94786835,9.804424286,71.95810699,33.18352509,4.406260014,27.12026215,11.81431007,0.3161797523,8.335912704,25.73945999,26.1299572,3.232012272,16.38148689,71.77746582,11.6289444,64.88955688
596.9500122,76.77751923,9.427659035,69.57982635,33.1525383,4.872766018,26.81600761,11.24136925,-0.03551483154,8.233354568,25.93343353,25.64022446,3.485127926,16.14630318,69.74906158,11.32980347,63.52773666
597.9699707,75.41986084,9.645526886,71.19474792,31.6248455,4.476795673,26.36545944,10.80271149,-0.2718987465,8.200277328,26.14400864,24.71021652,3.073197365,16.0207119,70.16049957,11.61586952,60.56341934
598.8400269,75.23680115,9.265979767,70.5738678,33.29530334,4.304419041,25.90897369,10.83471107,0.02473545074,7.752857685,26.26399612,24.33210182,2.736296177,15.96774673,70.73885345,11.28478813,61.70619583
599.8499756,76.65556335,9.601901054,68.86406708,32.76562881,4.824265003,25.98676109,9.910198212,-0.01088523865,8.136802673,26.5837822,23.86736679,2.913799763,15.04913902,69.8147583,10.5268631,60.42992783
600.8800049,73.15518951,8.554401398,69.189888,32.69305038,4.440694332,25.47795105,10.82340813,0.262365818,7.582438946,25.05518913,23.98451996,2.527139187,16.03664017,68.80247498,11.7774353,59.15365601
601.9099731,71.98123169,8.502906799,69.03062439,32.51494598,4.357726574,25.84400749,10.83783531,-0.04953336716,7.818649769,24.38668633,23.83316231,2.741952896,14.85396385,66.95875549,10.69557571,58.53941345
602.9400024,71.83098602,8.70247364,66.943367,32.03663254,4.883070469,24.75730133,10.08072472,-0.3860633373,7.44413805,23.71001244,23.3927002,2.499546051,14.84600258,65.29058075,11.49658775,57.50119781
603.9699707,71.31443787,8.704110146,65.33535767,30.92960167,4.061496258,25.14877701,10.07086754,-0.1187195778,6.857927799,23.71818352,21.80334663,2.181840897,14.8019104,66.67098236,10.03971291,57.80848694
604.8499756,70.05630493,8.234636307,65.84984589,31.52255058,4.168368816,24.59676552,10.1479435,-0.6044449806,6.897002697,23.88329124,23.25158501,2.294057846,14.82410049,66.75772095,10.39079666,57.50314331
605.8800049,70.11460876,8.342148781,64.77832794,30.6033268,4.039170742,23.50643921,9.613285065,-0.7256450653,6.601460934,23.37475204,22.08741188,2.084563732,13.81825829,63.23915482,10.07435799,56.71284103
606.9099731,66.62910461,8.243841171,62.64704514,30.2267971,4.035121441,23.68712234,9.346712112,-0.5530927181,6.513786793,22.72888565,20.846632,1.884052753,13.6992588,63.39906693,9.636816025,53.79577255
607.9400024,67.48822021,8.35396862,62.04661942,30.21366692,3.904806614,23.27708244,9.16702652,-0.9736237526,6.590642452,21.85736847,21.07523918,2.049882412,13.35810089,61.515728,9.538923264,53.22935486
608.9699707,66.09280396,7.637071133,60.43806458,29.23365593,4.214983463,22.7424221,8.369680405,-0.9529664516,5.822899342,21.48547554,20.10866928,1.776408672,12.6330719,60.49831772,9.114133835,51.70620728
609.8499756,64.58955383,7.744740963,59.78124619,29.36400795,3.282937527,21.42392731,8.179786682,-0.8337640762,6.395117283,19.75517082,20.12840652,1.307792664,13.68239021,59.88549423,9.128469467,49.67041016
610.8599854,62.0099411,7.59841156,59.07751465,28.7828846,3.083201885,22.01291275,8.454315186,-0.8249504566,5.563667774,20.46611786,19.60098648,1.094498634,12.34340858,58.31984329,8.002655029,49.23510742
611.8800049,62.64111328,7.200850487,57.71286774,27.72106171,2.617563248,20.56997871,8.137102127,-1.082020283,5.541064739,19.65833855,18.79075623,0.9572224617,11.55545044,56.7922554,8.036354065,48.92781067
612.8900146,61.26403809,7.140908718,54.13157654,28.15177345,2.860660553,20.9053669,7.517063618,-1.232025623,5.279111385,18.93303299,18.78761101,0.9306454659,10.84942245,55.7297821,7.875150204,47.28292465
613.9099731,59.64701462,7.384615421,55.73983002,27.36911011,2.838880062,20.5499382,7.35875082,-1.068501472,5.762457371,18.16896629,17.9437027,0.8146314621,11.02157784,55.53609848,6.943665028,46.16054916
614.9199829,59.36355591,7.190399647,53.95417786,26.50777626,2.882311821,19.960289,7.723621845,-1.275577784,5.036415577,18.73975563,18.01496506,0.5672826767,11.58903122,53.14610291,7.310989857,44.73327255
615.9400024,58.07707596,7.062592506,52.86278152,25.59873581,2.312850475,19.60708618,6.645579815,-1.570678473,4.539448261,17.67904282,16.32620621,0.2034244537,10.453722,50.87548065,6.516989231,44.73069
616.9500122,57.1015358,7.140272617,51.73519135,24.68697166,2.267912388,18.19059372,6.825183392,-1.223030806,4.556785107,17.61833,15.95871162,0.2533144951,10.31754684,51.2767868,7.125109196,42.77874756
617.9699707,55.1651535,6.259933949,50.15433884,24.29628372,2.34083271,17.70109177,6.077487469,-1.478778839,4.060546398,16.45038605,16.05931091,0.1148495674,9.726758957,50.6978035,6.471332073,42.54997253
618.8400269,55.21689606,6.820225716,50.8053894,23.00601768,2.318482399,18.30669022,6.090043545,-1.626858234,3.800204754,15.6805191,15.83904457,0.2779040337,10.26272011,49.94773865,5.718649387,40.46974564
619.8499756,52.54658127,6.38977623,49.14447403,23.27284813,1.570687294,17.23942566,5.807694912,-1.655915737,4.155413151,15.59647179,15.78422165,0.02771139145,9.561395645,47.93046188,6.451081753,40.39036179
620.8599854,51.93115616,6.502623081,48.30820465,23.19217873,1.404771328,17.2789402,5.091175556,-1.699197531,3.738126278,15.2616539,14.7637291,0.2131323814,8.943277359,46.40368271,5.209941387,38.54677582
621.8800049,50.51598358,5.738388062,46.5116272,22.47634506,1.551232815,17.08328247,5.404245853,-1.840591431,3.9080863,13.51515198,14.92298126,-0.4188170433,8.681814194,45.29457092,5.162662983,37.65685272
622.8900146,49.80148697,6.083973885,45.5980072,21.4741478,1.585576534,15.43481064,4.970070362,-1.783807755,3.215826988,13.66117668,13.80512047,-0.4366672039,8.377666473,44.03934479,5.065919399,36.58042145
623.9099731,48.13076782,5.763688564,44.26755905,20.6861515,1.145105839,16.06775856,5.022408009,-1.588601828,3.430575371,13.92801094,14.1846981,-0.2770960331,7.821461201,43.32483292,4.986732006,35.82330704
624.9199829,46.16454315,5.539481163,42.90299988,20.41848183,1.040084839,14.7485218,4.818426609,-1.716776848,3.106620312,12.42819786,13.53817368,-0.3396317959,7.321391582,42.01464844,4.991575718,35.35004807
625.9400024,45.42619705,5.578905106,42.06995392,18.57442093,1.134110928,14.82064438,4.347534657,-2.163467407,2.982708454,13.47241402,13.22300911,-1.095413923,7.538973331,40.69231796,4.585665226,33.16806412
626.9500122,45.73080444,5.121294022,40.92963028,19.03559494,1.154438496,14.44917488,4.154117107,-2.06295085,2.969007492,12.46404839,12.65921593,-0.673406601,7.611959934,39.76879883,4.653419018,33.4738121
627.9699707,44.25769043,4.991556644,40.59954453,18.11409378,0.8981347084,12.78378677,4.141771793,-1.97386694,2.187284946,12.02542496,11.60008812,-0.7942793369,6.62012434,37.8343544,4.013059139,32.20131302
628.8400269,43.92822266,5.01222229,39.3451004,17.26755333,0.7313861847,13.06342506,3.419393539,-2.103048563,2.946913242,10.80428505,11.7747345,-1.118439198,6.168292522,35.67776871,3.525654316,32.08129883
629.8499756,42.97979736,4.691030502,38.65550613,17.69862556,0.8248624802,12.52685165,3.896135807,-1.797203064,1.901236057,11.37888718,11.35834503,-0.8122065067,6.484265804,34.56597137,3.864667416,30.36290932
630.8599854,40.8118248,4.910867691,37.77396393,15.98768044,0.3628950119,12.10944176,3.696185112,-2.542017937,2.283724785,10.86464691,10.68660736,-1.163681507,5.675236225,35.28663254,3.833616734,29.54424858
631.8800049,39.98552704,4.516082287,36.3604126,16.25707626,0.2409944534,11.34982491,3.747959137,-2.070999146,1.978462696,10.00014496,9.82443428,-1.02197504,5.954297543,33.49312973,3.612411499,28.20326424
632.8900146,38.58024597,4.433645248,36.17290115,16.00299454,0.5939078331,11.86621666,2.821536541,-2.015268564,2.09870863,9.685604095,10.05186081,-0.9252707958,5.614039898,32.45925903,3.413279533,27.30504799
633.9099731,36.99614716,4.841816902,34.67938232,14.12553024,0.1592059135,11.84283638,3.029651165,-2.407180309,1.496136189,10.21217918,9.399238586,-1.174794436,4.986822605,32.52134705,2.773783684,26.8187027
634.9199829,36.90865707,4.708797932,33.34863281,13.33009911,0.2943844795,10.28734779,3.051346302,-2.132210732,2.086886406,9.053256989,9.344713211,-1.078749895,4.936044216,30.337183,2.545182705,25.76686668
635.9400024,35.55957794,4.576481342,32.67974091,13.65686226,-0.1055836678,10.59621239,2.523607731,-2.219671488,1.220385075,8.904600143,8.928215027,-1.200716734,4.692492008,29.40067863,2.953511238,25.0933857
636.9500122,35.01470566,4.331651688,31.72661781,13.47175026,-0.1497840881,10.05776405,2.971208096,-2.368474245,0.6171998978,7.981469631,8.727777481,-1.090256929,4.663228512,29.38370705,2.569932938,22.98029327
637.9699707,33.3975296,4.419001579,30.16691208,12.41880798,-0.1230649948,9.004795074,2.514649868,-2.678108215,0.9306483269,8.21075058,8.09107399,-1.43838954,4.532912731,27.57236671,2.255661488,23.25096893
638.8400269,33.20540237,3.721385717,29.93461227,12.55515099,-0.3999738693,9.417495728,2.300293446,-2.489678621,1.150555134,8.494052887,8.396284103,-1.352869034,4.212059498,26.81598663,2.435034752,22.31624222
639.8499756,31.6985054,4.04597044,29.04024315,11.57314301,-0.4213178158,8.89802742,2.007429123,-2.417716026,1.052919388,7.183475018,7.767877102,-1.651384115,3.98750639,25.53359604,1.822486877,21.90198326
640.8599854,31.41127586,3.344644785,27.97165108,11.57959366,-0.4748346806,8.255620956,1.747416496,-2.435945988,0.673368454,6.812468052,7.74588728,-1.527833462,3.939308643,24.93597603,1.731397152,20.6802597
641.8800049,29.73611641,3.517880678,26.80016136,11.23355675,-0.7216775417,7.986036777,1.455053806,-2.573499918,0.5866670609,7.423787594,6.977784634,-1.516518116,3.527283192,24.14507866,1.503201008,20.19713211
642.8900146,29.31809998,3.533308744,26.96994972,10.00594711,-0.6978125572,7.530224323,1.224982262,-2.65286541,0.255051136,6.258626461,6.343738079,-1.825689793,3.357982159,22.41081619,1.291078568,18.87203598
643.9099731,28.31675339,3.118996143,25.78282928,10.18750381,-0.8507201672,7.525751591,0.8345413208,-2.73433733,0.3069257736,6.721810818,6.161725521,-2.007317066,2.55589962,22.78154945,1.35302639,18.42284203
644.9199829,27.62337112,3.77011919,25.59960175,10.08115959,-0.9292869568,6.490661144,1.026185513,-2.613657236,0.2127189636,5.725850582,6.184184551,-1.738086939,2.890483379,20.99964714,1.084607601,17.48861504
645.9400024,27.04709053,3.27223444,23.64554024,9.035104752,-0.9361498356,6.415147305,0.5825710297,-2.948359966,0.1536192894,6.043220043,5.895404339,-1.937139034,2.395867348,20.57931328,0.6645383835,17.28397942
646.9500122,25.33157539,2.66977334,24.04128647,8.629524231,-1.263944387,5.951863766,0.56924963,-2.67154479,-0.02557373047,5.443128109,5.32221365,-2.163907528,2.720353603,19.56166649,0.2864117622,16.64268303
647.9699707,24.71343231,3.249450445,22.24809837,8.576246262,-1.045262575,6.217903614,0.4125638008,-2.924411535,-0.08921670914,4.978729725,5.205679417,-2.181568623,1.975849628,19.24102211,0.4576306343,15.37179947
648.8400269,23.81359863,2.705228567,22.51642418,8.131065369,-1.305242777,5.352044582,0.4165887833,-3.196802139,-0.1042957306,4.83019495,4.794904232,-2.136259079,2.247128487,19.07046318,0.36358881,16.00333405
649.8499756,24.23438072,2.524517059,21.8519249,7.721338749,-1.330404282,5.004583836,0.615749836,-2.832795143,-0.7136142254,3.662412643,4.583291531,-2.373520374,1.881387234,17.57043839,0.4067826271,14.39338684
650.8499756,22.69115067,2.34939146,19.74985123,7.416927814,-1.524615526,4.84693861,0.1127119064,-3.117582321,-0.6888411045,3.604775906,4.151799679,-2.292814732,1.58766222,17.0626297,-0.08731031418,13.8968029
651.8499756,22.15743446,2.342825174,19.94555855,6.510077,-1.68632102,4.551260471,0.4918961525,-3.145000935,-1.010690212,3.703519344,3.75342226,-2.746610165,1.583944798,16.15532875,-0.2335808277,13.37287521
652.8499756,21.71414566,2.322580576,19.03851891,6.449114323,-1.80407548,4.18144083,-0.1837048531,-2.737271786,-1.21281743,3.386010647,3.292811871,-2.59704566,1.314108849,15.1679821,-0.5149161816,12.94509888
653.8499756,20.28291321,2.31167388,18.16157532,6.152541637,-1.65092063,4.342391491,-0.4407396317,-3.062087059,-0.9403944016,3.499438763,3.172113895,-2.451080084,1.082489491,14.25078201,-0.2166028023,11.87038422
654.8499756,19.85546112,2.346574783,17.5244236,5.640342236,-1.662546873,3.799581051,-0.4796104431,-2.944920778,-1.084346294,2.733458042,3.139019966,-2.223310232,0.8796401024,13.59305,-0.1838054657,12.35737228
655.8499756,18.96681976,2.207948685,17.3301506,5.939488888,-1.555832863,3.450063229,-0.6403906345,-3.178235769,-1.289164543,2.893640518,3.080321789,-2.601442814,0.8842325211,14.02519989,-0.8853626251,11.39188194
656.8499756,18.54366875,2.174847603,16.16485023,4.954703808,-1.60739994,3.099290848,-0.5421574116,-3.149844646,-1.277751207,2.819107533,2.55339098,-2.597041845,0.8929772377,13.09347916,-0.6621732712,10.81788826
657.8499756,17.59329605,2.089864016,16.39219475,5.021863461,-1.925879955,2.983447552,-0.803732872,-3.130254507,-1.302343845,2.452691555,2.707715988,-2.576571465,0.5195479393,12.73812103,-0.8604934216,10.65371895
658.8499756,17.5918026,2.337483406,16.21295547,4.529913425,-2.115105629,2.880087376,-0.9233486652,-3.206345558,-1.416891336,2.066488743,2.499032497,-2.82215023,0.2931308746,12.55072975,-0.9415984154,9.754375458
659.8499756,16.74789238,1.985035896,15.12802601,4.333256245,-2.067372799,1.983641148,-0.9110910892,-3.248553514,-1.639568329,2.126881123,1.996385098,-2.639906406,0.01970338821,11.41269684,-0.7770144939,9.464670181
660.8499756,15.99228764,2.062265635,14.81256866,4.22202158,-2.383738041,1.724942207,-0.8467154503,-3.248074532,-1.819046974,2.156824589,2.06999588,-2.799312115,-0.2395663261,11.30178642,-1.166949034,9.019748688
661.8499756,15.67329502,1.811776519,14.11687469,3.56962347,-2.112219572,2.329353809,-0.9654619694,-3.307133436,-1.124903679,1.649715424,1.877065659,-2.625020504,-0.1909666061,10.95873451,-1.386392593,8.423446655
662.8499756,14.32651043,2.017133236,13.79811192,3.408738613,-2.170764685,1.883852959,-1.144969225,-3.340132236,-1.553728342,1.500586987,1.211184025,-2.814269304,-0.6008925438,10.25681305,-1.821520805,7.93618536
663.8499756,14.10471535,1.598960757,13.02821445,3.188466549,-2.370645046,1.597709656,-1.787197351,-3.340511799,-1.663955688,1.268671513,0.7878284454,-2.92412591,-0.3911788464,8.998836517,-1.548032522,7.441449642
664.8499756,14.36885738,1.747577786,12.4984026,3.738613129,-2.387591362,1.31727457,-1.227206945,-3.036101818,-1.884147644,0.7195234299,1.071674347,-2.980953217,-0.573600769,10.58316612,-1.505988359,6.865157604
665.8499756,13.17881775,2.03045702,12.45223141,2.50355196,-2.612960339,0.9897413254,-1.612897396,-3.282928705,-2.251924753,1.125796795,1.022037506,-2.965068817,-0.1749510765,8.849981308,-1.405027866,6.812563419
666.8499756,13.33333397,1.501313686,11.68774033,2.6031394,-2.520102501,1.010024071,-1.408412457,-3.387872934,-2.398332596,0.885509491,1.274440765,-2.639056206,-1.020668745,8.310268402,-1.508643389,6.585690975
667.8499756,12.58606052,1.452488303,11.30478191,2.596076965,-2.295198917,0.5212755203,-1.530225992,-3.062732697,-2.29782486,0.3780584335,0.343082428,-2.621578217,-0.7938659191,8.042488098,-1.79575181,5.90379858
668.8499756,12.17458248,1.55228126,11.28628159,1.438913822,-2.702936649,0.7648720741,-2.039967299,-3.301869869,-2.113261461,0.397632122,0.3592581749,-2.915953159,-1.019049644,7.532878399,-1.97629714,5.58438158
669.8499756,11.8101635,1.599600077,11.19222641,2.087574005,-2.581929684,0.4521608353,-1.684546709,-3.334405184,-2.463874578,0.4265394211,0.3161735535,-2.76509285,-0.5265672207,7.33271265,-1.856627226,5.228956699
670.8499756,11.32220268,1.471043706,10.39116764,1.975845337,-2.678466558,0.5028662682,-2.013376474,-3.355006695,-2.025305271,0.1926102638,-0.3141922951,-2.982888222,-1.044411421,7.173213482,-1.655924797,4.75809145
671.8499756,11.60570049,1.545203447,9.453912735,1.663521767,-2.639839172,0.1724290848,-2.023720026,-3.457056284,-2.20823741,0.4196214676,0.1213364601,-3.046374321,-1.27223134,6.913389683,-1.978331566,4.700970173
672.8499756,10.44482613,1.363705277,9.200793266,1.866959095,-2.943424702,0.2052221298,-2.270541191,-3.402399302,-2.243180037,-0.2059817314,-0.3027925491,-3.077800512,-1.32388258,5.859472752,-1.767972231,4.69319582
673.8499756,10.06997776,1.009316802,9.344397545,0.9359307289,-2.844210148,-0.04423046112,-2.17784071,-3.689664841,-2.651604176,0.00518655777,0.06670236588,-3.06780529,-1.423346758,5.741134167,-2.292549372,4.312990665
674.8499756,9.35956955,1.093340755,9.016788483,0.9158444405,-2.555828571,0.08364343643,-2.283896446,-3.341247559,-2.441545486,-0.5729484558,-0.5454142094,-2.95123601,-1.463435411,5.479158878,-2.215401173,3.760149002
675.8499756,9.517334938,1.072221756,8.020766258,0.9229283333,-2.820375919,-0.2344079018,-2.484136105,-3.406497955,-2.612941265,-0.4718203545,-0.2019305229,-3.320801735,-1.521759272,5.4422822,-2.370717049,3.759409904
676.8499756,8.776862144,1.148449659,7.713815212,0.9401788712,-2.568109512,-0.7381796837,-2.534949303,-3.459130287,-2.722453594,-0.6699414253,-0.4196310043,-3.058605194,-1.870234728,4.218879223,-2.27985096,3.064105988
677.8499756,8.797511101,1.308480382,7.932246685,0.7463445663,-3.011659622,-0.7166936398,-2.268760443,-3.511429787,-2.652611256,-0.821420908,-0.7109982967,-3.044016838,-1.762098312,4.163776875,-2.779810905,2.79497242
678.8499756,8.602255821,1.177915335,7.431874752,0.274641037,-3.187886715,-0.726388216,-2.288413525,-3.405448437,-2.961666584,-0.9381961823,-0.9086275101,-3.070610523,-1.817372561,4.040201664,-2.757073641,2.689004421
679.8499756,7.860738754,1.049855351,7.01375103,0.5719623566,-3.081113338,-0.7266054153,-2.409739494,-3.485011816,-2.728113413,-0.8012139797,-0.9757497311,-3.224132538,-1.867738485,3.323613644,-2.50941515,1.890521049
680.8499756,7.384585381,1.140901327,6.670061111,0.3985915184,-3.179222107,-0.8100156784,-2.745526791,-3.814035892,-2.914551735,-1.108348846,-0.8089601994,-3.22228241,-2.149260759,3.304608822,-2.641512871,2.091311455
681.8499756,7.264640808,1.13139236,6.758473396,0.2111487389,-3.045800924,-1.009230614,-2.629563332,-3.758012056,-3.026566505,-1.197093964,-1.153053522,-3.375997066,-1.962783813,2.696874619,-2.733614683,2.179290771
682.8499756,7.161264896,0.9499762654,6.76137495,-0.2790987492,-3.288223267,-1.396595478,-2.823497772,-3.785585165,-3.162925482,-1.504289389,-1.286628962,-3.025067091,-2.186200619,2.56700182,-2.631626844,1.077885151
683.8499756,7.494934559,0.9800226092,6.547337532,-0.3726341724,-3.235654354,-1.132236242,-2.675211906,-3.509672642,-2.826392651,-1.125690699,-1.225042105,-3.131392956,-2.155366659,2.418750763,-2.755646229,1.616405964
684.8499756,6.707958698,0.9246301651,6.161337852,-0.3064622879,-3.041871071,-1.446553707,-2.623691559,-3.515794754,-2.997808695,-1.433682203,-1.308300257,-3.036372185,-2.174017429,2.556796074,-3.043774605,1.487558842
685.8499756,6.211027145,0.9125212431,5.877868176,-0.4402410984,-3.141809702,-1.52043891,-2.617754459,-3.561029434,-3.309463978,-1.335803986,-1.38650322,-3.433663607,-2.417866707,1.848508358,-2.662862778,1.107295513
686.8499756,6.109427452,0.7030405998,5.436031342,-0.6898305416,-3.101124287,-1.362632036,-2.803353786,-3.512553215,-3.152188301,-1.637791634,-1.573768854,-3.362979412,-2.469038963,1.443776608,-2.722315788,0.8016262054
687.8499756,5.988322735,0.8535636067,5.009456635,-1.050191879,-3.44786334,-1.906646967,-2.712376595,-3.518597841,-3.061182499,-1.452432632,-1.578550339,-3.461223364,-2.408719778,1.62430048,-2.670921326,0.925122261
688.8499756,6.089061737,0.9416428804,5.53369379,-1.181866646,-3.259965181,-1.808680296,-3.203044891,-3.613340616,-3.098134518,-1.506941795,-1.963757277,-3.473917961,-2.78337431,1.949213982,-3.02782011,0.4220333099
689.8499756,5.364593506,0.8529640436,4.922213554,-1.076956987,-3.219715118,-2.028898001,-3.243400097,-3.654858351,-3.41617012,-2.012274504,-2.004751205,-3.548163414,-2.704243183,1.458848953,-3.259990931,0.2566189766
690.8499756,5.499248028,0.5617566109,4.996430874,-1.314002037,-3.372472048,-1.560514927,-3.049352646,-3.363069296,-2.935506821,-2.117320776,-1.778753042,-3.513116837,-2.303079844,1.104336262,-3.076963425,0.2582268715
691.8499756,5.155887127,0.6231927276,4.716865063,-1.169270992,-3.16040349,-2.161160231,-3.015667439,-3.685619831,-3.116004467,-1.793624401,-2.147663355,-3.392054558,-2.575232983,0.8877911568,-3.258206844,0.08986997604
692.8499756,4.960367203,0.7287252545,4.309071064,-1.446689606,-3.363936901,-1.851781607,-3.176618099,-3.612515211,-3.284139395,-1.782072067,-2.204810381,-3.384789467,-2.635657787,0.690887928,-2.960299015,0.02887821198
693.8499756,4.689648151,0.6126471758,4.382055759,-1.567152977,-3.367859364,-2.043343782,-3.277266979,-3.742858171,-3.204249144,-1.933368444,-2.054951429,-3.384233475,-2.781612396,0.5024518967,-3.435516834,-0.1732177734
694.8499756,4.808963776,0.392238915,4.355337143,-1.915465593,-3.185839176,-2.23287344,-3.163671255,-3.717469692,-3.280864716,-1.993362904,-2.007550955,-3.535326958,-2.480792046,0.3303952217,-3.085216045,0.2636823654
695.8499756,4.553339005,0.5769761801,4.362915039,-1.497397661,-3.331813335,-2.248489857,-3.299975157,-3.536590576,-3.518664837,-2.265720844,-1.965346098,-3.398177147,-2.600636959,0.4949588776,-3.318721533,-0.05130052567
696.8499756,4.107125759,0.4235282242,4.332651615,-1.766038179,-3.469638824,-2.102673769,-3.003608465,-3.67202425,-3.235458851,-2.312465191,-2.226647377,-3.448003769,-2.743779659,0.436393261,-3.095071316,-0.4599235058
697.8499756,4.25336504,0.3241410255,3.677468777,-1.910252333,-3.413538933,-2.436388016,,,,,,,,,,
698.8499756,4.026878357,0.4256491065,3.66678977,-1.803959608,-3.798590422,-2.579566956,,,,,,,,,,
699.8499756,4.052174568,0.7239864469,3.72520566,-1.673897505,-3.457801104,-2.510464668,,,,,,,,,,
700.8400269,3.738953114,0.6879857183,3.619415998,-1.867099762,-3.638184071,-2.48688221,,,,,,,,,,
